74,75,74,74,74,75,74,74,74,74,74,74,74,74,74,75,74,75,74,74,74,74,75,75,75,76,76,76,76,76,76,77,77,77,77,78,77,78,78,78,78,78,79,79,79,79,79,80,80,80,80,81,80,80,80,81,81,80,80,80,80,80,79,80,80,79,80,79,79,79,79,79,79,79,79,79,79,79,79,79,79,79,79,79,79,80,79,79,79,80,80,80,80,80,80,80,80,80,81,80,80,80,80,80,80,80,81,81,81,80,80,81,80,81,81,81,81,81,81,80,81,81,81,80,81,81,81,81,80,81,81,81,81,81,81,81,81,81,81,81,81,81,81,82,81,82,81,82,82,82,82,82,81,82,82,82,82,82,82,82,82,82,82,82,82,82,82,82,82,82,82,82,82,83,82,83,82,83,82,82,83,82,83,83,83,83,83,83,83,83,83,83,83,83,83,83,83,83,83,83,83,83,83,83,83,83,83,83,83,83,83,83,83,84,83,83,84,84,83,83,84,83,83,84,83,84,84,84,84,84,84,84,84,83,83,83,84,83,84,83,84,83,83,83,83,83,83,83,84,84,84,83,83,84,84,83,85,84,85,85,85,85,85,85,85,85,85,85,85,86,86,86,86,86,86,86,85,85,86,85,85,85,85,85,85,84,85,85,85,85,85,85,85,85,85,85,85,85,86,85,85,85,85,85,85,85,85,84,83,81,78,76,72,68,65,62,59,57,59,65,74,87,101,119,137,157,175,192,205,215,220,222,218,211,201,190,177,165,155,144,135,126,119,111,106,101,96,93,91,88,86,84,83,82,81,80,79,79,79,78,78,78,77,77,77,77,78,77,77,77,77,77,77,78,78,78,78,78,78,77,77,78,78,78,78,78,78,78,78,78,78,78,78,79,78,78,78,78,79,79,79,78,78,78,78,79,78,78,78,78,78,78,78,79,78,79,79,79,79,79,79,80,80,80,80,81,80,81,81,81,81,82,82,82,82,82,82,82,83,83,83,84,84,84,84,84,84,84,84,85,85,84,85,84,84,84,84,84,84,84,84,83,84,83,84,83,83,83,83,82,83,83,83,83,83,83,83,83,83,83,83,83,83,83,83,83,83,83,83,84,83,83,83,83,83,83,83,84,83,83,83,83,83,83,84,83,83,84,83,83,83,83,83,84,83,84,83,83,83,84,83,84,83,84,84,84,83,84,83,83,84,84,83,84,84,83,83,83,84,84,84,84,84,84,84,84,83,84,84,84,84,84,84,84,84,84,84,84,84,84,84,84,84,84,84,84,84,84,84,84,84,84,84,84,85,84,84,84,84,84,84,84,84,84,84,84,84,84,84,84,84,84,84,84,84,84,84,84,84,84,84,84,84,84,84,84,85,84,84,84,84,84,84,84,85,84,84,84,84,84,84,84,84,84,84,84,84,83,85,84,84,85,85,85,85,85,85,85,85,85,85,86,86,86,85,85,86,87,86,86,86,86,86,86,86,86,86,85,85,85,85,85,85,84,85,85,85,85,85,84,85,85,85,84,85,84,84,85,85,84,85,85,85,84,84,84,83,82,80,78,75,72,68,66,62,60,58,59,63,70,81,95,111,129,149,167,183,196,205,210,212,209,202,193,182,171,160,149,139,130,123,116,109,105,100,96,92,90,87,85,84,82,81,80,79,79,78,78,78,77,77,77,77,77,77,77,77,77,77,77,77,77,78,77,77,78,78,78,78,77,77,78,78,78,78,78,78,78,78,78,78,78,79,78,79,79,79,79,79,79,79,79,79,79,79,79,79,79,80,80,80,80,80,80,81,81,81,81,82,82,82,82,82,82,83,83,83,83,84,84,84,84,84,84,84,85,85,84,84,84,84,85,85,84,85,84,84,84,84,84,84,84,83,83,83,82,82,82,82,81,81,81,81,80,80,80,80,80,80,80,80,80,80,80,80,80,79,79,79,80,79,80,79,80,79,80,79,80,79,79,80,79,80,80,80,80,80,80,79,80,80,80,80,80,80,80,79,79,80,80,80,80,80,79,79,80,80,79,80,80,80,80,80,80,80,80,80,80,80,80,80,80,80,80,80,80,80,80,80,80,80,80,80,80,80,80,80,80,80,80,80,80,80,80,81,80,80,80,81,81,81,81,80,80,80,80,80,80,80,81,80,80,80,80,81,80,81,80,80,80,81,81,80,81,80,81,81,81,81,81,80,81,81,81,80,80,81,80,80,80,80,81,81,81,81,81,81,81,82,82,82,82,82,82,82,82,82,83,83,83,83,83,82,83,82,82,82,81,81,81,81,80,81,82,81,81,81,81,81,81,81,81,81,81,81,81,80,80,81,81,81,80,81,81,80,80,79,79,78,76,73,70,67,64,60,58,55,54,55,60,69,81,94,111,129,149,168,183,195,203,207,207,203,196,186,175,164,153,143,133,125,117,111,105,99,94,90,88,85,83,81,80,78,77,76,75,75,75,75,74,74,74,73,73,73,74,74,73,73,74,74,74,73,73,74,74,74,74,74,74,74,74,74,74,75,74,74,75,74,74,75,75,75,75,75,75,75,75,76,76,76,76,76,75,76,76,76,76,76,77,77,77,77,77,77,77,78,78,78,78,78,78,79,79,80,80,80,81,81,81,81,81,81,81,82,81,82,82,82,82,82,82,82,82,82,82,81,81,81,81,81,81,80,80,80,79,79,79,78,79,78,78,78,77,77,77,77,77,77,77,76,77,77,77,77,77,77,76,76,76,76,76,77,76,76,76,77,76,76,76,76,76,77,76,77,76,76,76,77,77,77,77,77,76,76,77,77,77,77,77,77,77,77,77,77,77,77,78,77,77,77,77,77,77,77,77,77,78,77,77,77,77,77,78,78,77,77,77,77,77,78,77,77,77,77,77,77,77,77,78,77,77,78,78,78,77,77,78,77,77,78,78,78,78,78,78,78,78,78,77,78,78,78,78,78,78,77,78,78,78,78,78,78,78,78,78,78,78,78,78,78,78,78,78,78,78,78,78,78,78,78,78,78,78,78,78,78,78,78,78,78,78,78,78,78,78,78,78,79,79,79,79,79,79,79,80,80,80,79,80,80,80,80,81,80,81,80,80,80,80,80,80,80,80,80,80,79,80,79,79,79,79,79,80,80,79,79,79,80,80,79,80,79,79,80,80,79,80,80,79,79,79,77,76,74,71,68,64,61,58,55,53,52,56,63,74,87,103,122,141,161,179,195,205,213,215,214,208,199,188,176,165,153,142,132,124,116,109,103,97,93,89,86,83,81,80,78,78,76,76,74,74,73,73,73,73,73,72,73,73,73,73,73,73,73,72,73,72,73,73,73,73,73,73,74,73,73,74,74,74,74,74,74,74,73,74,74,74,74,74,74,74,74,74,74,74,75,75,74,75,75,74,75,75,74,75,75,75,75,75,75,76,76,77,77,76,77,77,77,77,78,78,78,78,79,79,78,79,79,80,80,80,80,80,80,80,81,81,81,81,81,81,80,81,80,80,80,80,81,80,79,79,79,79,80,79,79,79,79,78,78,78,78,78,78,78,78,78,77,78,78,78,77,78,77,78,78,78,78,78,78,78,78,78,78,78,78,78,78,78,79,78,78,78,78,78,78,78,78,78,78,78,78,78,78,78,78,78,78,78,79,78,78,78,78,78,78,78,78,78,78,78,78,78,78,78,78,78,78,78,78,78,78,78,78,78,78,79,79,79,79,79,79,79,79,79,79,79,79,80,79,79,79,80,80,80,80,80,80,80,80,80,80,80,80,80,80,80,80,80,80,80,80,80,80,80,80,80,81,81,80,80,81,80,80,81,81,81,81,80,80,81,81,81,81,81,81,81,81,80,81,80,81,81,81,81,81,81,81,81,81,81,81,81,81,81,81,81,81,81,81,81,82,81,81,82,82,82,82,82,83,83,82,82,83,82,82,84,83,83,83,83,83,83,83,83,82,82,82,82,82,82,82,82,82,83,83,83,82,82,83,83,82,83,82,82,82,82,83,82,83,82,83,82,81,80,79,76,73,69,66,63,59,56,54,56,60,69,81,95,113,130,151,170,187,202,212,219,221,218,211,202,191,179,167,155,144,134,125,117,111,105,99,96,92,89,86,84,82,81,80,79,78,78,77,76,76,76,76,75,75,75,75,75,75,75,76,75,75,76,75,75,75,75,75,75,76,75,76,76,76,76,76,76,76,76,76,76,76,76,77,77,76,77,76,77,77,76,76,76,77,77,77,76,77,77,77,77,77,77,77,77,77,77,77,78,78,78,78,78,79,79,79,79,80,80,80,80,81,80,80,81,81,81,81,82,82,82,82,82,82,83,83,83,83,83,83,82,83,83,82,82,82,82,82,82,81,82,81,81,81,81,81,80,81,81,80,81,81,81,81,80,80,80,81,81,81,80,81,81,81,81,81,81,81,81,81,81,81,81,81,82,82,81,82,82,81,82,81,82,81,82,82,82,82,81,82,82,82,82,82,82,81,81,81,82,82,82,82,81,81,82,81,82,81,82,82,82,82,82,81,82,82,82,82,82,82,83,82,82,82,82,82,82,82,82,82,82,82,83,83,83,83,82,83,83,83,82,83,83,83,83,83,83,83,83,83,83,83,83,83,83,83,83,83,83,83,83,83,83,83,83,83,84,83,83,83,83,83,83,84,84,83,83,84,84,83,83,83,83,83,83,84,83,84,83,83,83,84,84,84,84,84,83,83,83,83,84,84,84,83,83,83,84,83,84,83,83,84,84,83,84,84,84,85,85,85,85,85,85,85,85,85,86,86,86,86,85,85,86,85,85,85,85,85,84,84,84,85,85,85,84,84,85,85,85,84,85,85,85,84,85,85,84,85,85,85,85,85,84,84,83,83,81,79,76,72,68,65,62,59,57,57,62,70,82,95,112,130,150,170,187,201,212,218,219,217,210,201,190,178,166,154,144,134,127,119,113,106,102,97,93,90,88,86,84,83,82,81,80,79,79,79,78,78,77,78,77,77,77,77,78,77,77,77,78,78,78,77,78,78,78,78,78,78,78,78,78,78,79,78,79,78,78,79,78,79,79,79,79,79,79,78,79,79,79,79,79,79,79,79,79,79,79,80,80,80,80,80,80,80,81,81,81,82,81,82,82,82,82,83,83,83,83,83,83,84,84,84,85,85,85,85,85,85,85,85,86,86,85,86,86,85,86,86,85,86,85,85,84,85,84,85,84,84,84,83,83,83,83,83,83,83,82,83,83,83,82,82,83,82,82,83,82,83,83,83,83,82,83,83,83,83,82,82,83,83,82,83,83,83,82,83,83,83,83,83,83,83,83,83,83,82,83,83,83,83,83,82,83,82,83,83,83,83,83,83,83,83,83,83,83,83,82,83,83,83,83,83,83,83,83,83,83,83,83,83,83,83,83,83,83,84,83,83,84,84,84,84,84,84,83,84,83,84,83,83,84,84,84,84,84,84,84,84,84,84,84,84,84,84,84,84,84,84,84,84,84,84,84,84,84,84,84,84,84,84,84,84,84,84,84,84,84,84,84,84,85,85,85,85,85,85,85,85,85,86,86,86,86,86,86,86,86,87,87,86,86,86,86,86,85,85,85,85,85,85,85,85,85,84,85,84,84,84,84,84,84,85,84,85,84,84,84,84,84,84,84,84,84,83,82,80,78,76,73,69,66,63,60,58,58,61,67,78,91,106,123,143,162,180,194,205,211,213,211,205,196,186,174,163,152,142,133,125,117,111,105,101,97,92,89,87,85,84,83,81,80,79,78,78,78,77,77,77,77,77,77,77,77,77,77,77,77,77,77,77,77,77,77,77,77,77,78,78,77,78,77,78,78,78,78,78,77,78,78,78,78,78,78,79,78,78,78,79,79,79,79,78,79,79,79,79,79,80,80,80,80,80,80,80,81,81,81,82,82,82,82,82,83,83,83,83,83,84,84,84,84,84,85,85,85,85,85,85,85,85,85,85,84,84,84,84,84,84,83,83,82,82,82,81,81,81,81,81,80,79,80,79,79,80,79,79,79,78,78,79,79,78,78,78,79,79,79,78,78,79,78,79,79,79,79,79,79,78,79,78,78,78,78,79,78,79,79,79,79,79,78,78,78,79,79,79,79,79,79,79,79,79,79,79,80,79,80,79,80,79,79,80,80,80,80,80,79,80,80,80,80,80,81,80,80,80,79,80,80,80,80,80,80,80,80,80,80,80,80,80,80,80,81,80,81,80,80,80,81,80,81,80,80,81,81,81,81,81,81,80,81,81,81,81,80,81,81,81,81,81,81,81,81,80,81,81,81,81,80,81,81,81,81,80,80,80,81,81,81,81,81,81,81,81,82,82,82,82,82,82,82,82,82,82,83,82,83,83,83,82,82,82,82,82,82,82,82,81,81,81,82,81,81,81,81,81,82,82,81,82,82,82,82,82,82,82,82,81,82,81,81,81,81,80,80,77,75,72,68,65,61,58,56,54,56,60,70,81,96,112,132,151,171,188,201,210,216,216,213,206,196,184,173,161,149,139,129,122,114,108,102,97,93,89,86,84,82,81,80,78,77,77,76,76,75,75,75,74,75,74,74,74,74,74,75,75,75,74,75,75,75,75,75,75,75,75,75,75,75,75,75,75,75,75,76,75,75,76,76,76,76,76,76,76,76,76,76,76,76,76,76,76,76,77,76,76,77,77,77,77,77,77,78,78,78,78,79,79,79,79,80,80,80,80,80,80,81,81,81,81,81,81,82,82,82,82,82,82,82,82,82,82,82,82,82,83,82,81,81,81,81,81,80,80,80,80,80,79,79,79,79,79,79,79,79,79,79,79,79,78,78,78,78,78,78,78,78,78,78,78,79,79,79,79,79,79,79,79,79,79,79,79,79,79,79,79,79,79,80,79,80,79,79,79,79,80,79,80,80,80,80,80,80,80,79,80,80,80,80,80,80,80,80,80,80,79,80,80,80,80,80,80,80,80,80,80,80,80,80,81,80,80,81,80,80,80,81,81,80,81,81,81,81,81,81,81,81,81,82,81,81,81,81,81,82,81,82,81,81,81,81,82,82,82,81,81,81,82,82,82,82,82,82,82,82,82,82,83,82,82,82,82,82,82,82,82,82,83,83,83,82,82,83,82,83,83,83,83,83,83,83,82,83,83,83,83,82,83,83,83,83,83,84,84,84,84,84,84,84,84,85,85,85,85,85,85,85,85,85,86,85,85,85,85,84,85,84,84,85,84,84,84,84,84,84,84,84,84,85,85,84,85,85,85,85,85,85,85,85,85,85,85,84,83,82,80,77,74,70,67,63,60,57,57,59,66,77,90,105,123,143,163,181,198,211,219,224,224,219,212,201,189,176,164,153,143,132,124,117,110,105,100,96,92,90,87,86,84,82,81,80,80,80,79,79,78,78,78,77,78,77,78,78,78,78,78,78,78,78,78,78,78,78,78,78,78,78,79,79,78,79,79,79,78,79,79,78,79,79,79,79,79,79,80,79,79,79,80,79,79,80,79,80,80,80,80,79,80,79,80,80,80,80,80,80,80,81,82,81,82,82,82,82,82,83,83,83,83,83,84,84,84,84,84,84,85,85,85,85,85,86,86,86,86,86,86,86,85,85,85,85,85,85,84,84,84,84,83,83,84,84,84,83,83,83,83,83,83,83,83,83,83,83,83,83,83,83,83,83,83,83,83,83,84,84,83,84,84,83,84,84,84,84,84,84,83,84,84,84,84,84,84,84,84,84,84,84,84,84,84,84,84,84,83,84,84,84,83,84,84,84,84,84,84,84,84,84,84,83,84,84,84,84,84,84,84,85,84,84,84,84,84,84,84,84,84,84,84,84,84,85,85,84,85,84,84,84,84,84,85,84,84,84,84,85,84,85,85,84,84,85,85,84,84,85,84,85,85,85,84,85,84,84,85,85,84,84,85,84,85,85,85,85,85,85,85,84,85,85,85,85,85,85,85,85,85,85,85,85,85,85,85,85,85,85,85,85,85,85,85,84,85,85,85,84,85,85,85,85,85,85,85,85,85,86,86,86,86,86,86,87,87,87,86,87,86,87,87,87,87,87,87,87,87,86,86,86,86,85,86,85,85,86,86,86,85,85,86,86,86,86,86,86,85,86,86,85,86,86,86,85,86,85,85,85,85,84,82,80,77,74,70,67,63,60,58,57,61,69,80,93,109,128,147,167,186,202,213,222,225,224,220,212,200,188,176,163,151,141,132,123,116,109,104,99,95,91,89,87,85,83,82,81,80,79,79,79,78,77,77,77,77,77,76,77,77,77,77,77,76,77,77,77,77,77,77,76,77,77,77,77,77,77,77,77,77,77,77,77,77,77,77,77,77,78,77,77,77,77,77,78,77,77,77,78,78,77,77,77,77,77,77,78,78,78,78,78,78,78,78,79,79,79,79,80,80,80,80,80,80,81,81,81,81,81,81,81,82,82,82,82,82,82,83,83,83,83,83,83,83,83,83,83,82,83,83,82,82,82,82,81,81,81,81,80,81,81,81,81,80,81,81,81,81,81,81,80,81,81,81,81,81,81,81,81,81,81,82,81,81,81,81,82,81,81,81,81,82,82,82,81,82,81,81,82,81,82,82,82,81,81,81,81,82,82,82,81,81,81,81,81,82,82,82,81,81,81,81,82,81,82,81,81,81,82,81,82,82,82,82,82,82,82,82,82,82,82,82,82,82,82,82,82,82,82,83,82,82,82,82,82,82,82,82,82,82,82,82,82,82,83,83,82,83,82,82,82,82,82,82,82,82,82,82,82,82,82,82,82,82,82,83,82,82,82,82,83,83,82,82,82,83,83,83,83,83,83,82,82,83,83,83,83,83,83,83,82,83,82,83,83,82,82,82,82,82,82,82,82,83,83,82,82,83,82,83,83,83,83,84,83,84,83,84,84,84,84,84,84,84,85,84,85,85,85,85,84,85,84,84,84,83,83,84,83,83,83,83,83,83,83,84,83,84,84,83,83,83,83,84,84,84,84,83,83,83,83,83,83,81,80,78,74,71,68,65,62,59,56,57,61,68,79,93,109,127,147,166,183,198,208,214,217,215,209,200,189,177,164,153,143,134,126,118,111,105,100,96,92,89,86,84,83,81,80,79,78,78,78,77,76,76,75,76,76,75,75,75,76,75,76,75,76,75,76,76,76,75,76,75,76,76,76,76,76,75,76,76,75,75,76,76,76,76,76,76,76,76,76,77,76,77,76,77,76,77,76,77,76,76,77,76,77,77,77,77,78,77,77,78,78,78,78,79,79,79,80,80,80,80,80,81,81,81,81,81,82,82,82,82,82,82,82,82,82,82,82,82,82,82,82,82,81,81,81,81,81,81,80,80,80,79,79,79,79,79,79,79,79,78,79,78,78,78,78,78,78,78,78,78,78,78,78,78,78,78,78,78,77,78,78,78,78,78,78,78,78,77,78,79,78,78,78,78,78,78,78,78,78,78,79,79,78,78,79,78,79,78,78,78,78,78,78,78,78,78,79,78,78,78,78,78,79,79,78,79,78,78,79,78,79,79,79,79,79,78,78,78,79,79,79,79,79,79,79,79,79,79,79,79,79,79,79,79,79,79,79,79,79,79,79,79,79,79,79,80,79,79,79,79,79,79,79,79,79,79,79,79,80,79,79,79,80,80,79,80,79,79,79,79,79,79,79,79,79,79,79,79,79,79,79,79,79,79,80,80,80,80,80,81,80,81,81,81,81,81,81,81,81,81,81,81,81,81,81,81,80,80,79,80,79,79,80,79,79,79,79,79,79,79,80,79,79,79,80,79,79,79,79,79,79,79,79,79,79,79,78,77,75,73,71,67,64,61,58,55,53,52,55,61,70,83,97,115,135,154,172,186,197,205,207,206,201,193,182,170,159,148,138,129,121,113,107,101,96,91,87,84,82,80,78,76,75,74,74,73,73,73,72,72,72,72,71,71,71,71,71,71,71,71,71,71,71,72,71,72,72,71,72,72,72,72,72,72,72,72,73,72,73,73,73,72,73,73,73,73,73,73,74,73,73,73,73,73,74,73,74,74,74,74,74,74,74,75,75,75,76,75,76,76,76,77,77,77,78,77,78,78,78,79,79,79,79,80,79,79,79,80,80,80,80,80,80,79,80,80,79,79,79,79,78,78,78,77,77,77,77,76,76,76,76,76,75,75,75,75,74,74,75,74,74,74,74,74,73,74,74,74,74,73,73,74,73,73,73,74,73,74,73,74,73,73,73,74,74,74,73,74,73,74,73,74,73,73,74,74,74,74,74,74,74,73,74,74,74,74,74,74,73,74,74,74,74,74,74,74,74,74,74,74,75,75,74,74,75,75,74,75,74,74,75,75,75,74,75,75,75,74,74,75,75,75,74,74,75,75,74,75,75,75,75,75,75,75,75,75,75,75,75,75,74,75,75,75,75,75,75,75,75,75,76,75,75,76,76,75,75,75,75,76,75,76,76,76,76,75,75,76,76,76,76,76,76,76,76,76,76,76,76,76,76,75,76,76,76,76,76,75,76,75,76,76,76,76,76,76,76,77,77,77,77,77,77,77,77,77,77,78,78,78,78,78,78,78,78,77,77,77,78,77,77,76,76,77,77,77,77,77,77,77,77,77,77,77,77,77,77,77,77,78,77,78,78,77,77,77,76,75,74,72,69,65,62,59,56,53,50,50,53,62,72,86,102,120,141,160,179,194,204,212,214,212,207,197,187,174,163,151,139,130,121,113,106,100,95,91,87,83,81,79,77,76,75,74,73,72,72,72,71,71,71,71,71,71,70,71,71,71,71,71,71,71,71,71,72,71,71,72,72,72,72,72,72,72,72,72,72,73,73,72,73,73,73,73,73,73,74,73,73,74,73,74,74,74,74,74,74,73,74,75,74,75,75,74,75,75,75,76,76,76,77,77,77,77,78,78,78,79,79,79,79,79,80,79,80,80,80,80,80,81,81,81,81,81,82,81,81,81,81,81,81,81,81,80,81,80,80,79,79,79,79,79,78,79,79,78,78,78,78,78,78,78,78,77,78,78,78,78,78,78,78,78,78,78,78,79,79,78,78,78,78,78,78,79,78,78,78,79,78,78,79,78,79,79,79,78,79,78,79,78,79,79,79,79,78,79,78,78,78,78,78,78,78,78,79,78,78,78,78,79,78,78,78,78,78,79,79,78,79,79,79,79,79,79,79,79,79,79,79,79,79,79,79,79,79,79,79,78,79,79,79,79,79,79,79,79,79,79,79,80,80,79,79,79,79,80,80,80,80,80,79,79,80,79,80,80,80,79,80,80,80,79,80,80,80,80,80,80,80,80,80,80,81,80,80,81,81,80,80,81,81,81,81,80,80,80,81,80,81,81,81,81,81,81,81,81,81,81,81,81,80,81,80,81,81,80,81,80,81,80,80,80,80,81,80,81,81,81,81,81,81,81,82,82,82,82,82,82,82,82,83,83,83,83,83,83,83,83,83,83,83,82,82,82,81,81,82,82,82,82,81,81,82,82,81,82,82,81,82,82,81,81,81,81,82,82,81,82,81,81,81,80,79,77,74,71,67,63,60,57,54,53,56,62,72,85,100,118,138,158,177,194,208,218,222,223,219,212,201,189,177,163,151,140,131,122,114,108,102,97,92,89,86,84,82,80,79,78,76,76,75,75,75,74,74,74,73,73,74,73,74,74,74,73,74,74,74,74,73,74,74,74,74,74,74,74,74,74,74,74,75,74,74,74,74,74,74,75,74,74,75,74,74,74,74,74,74,74,74,74,74,74,74,74,75,74,74,74,74,74,75,75,75,75,76,75,76,76,77,76,76,77,77,77,77,77,78,78,78,78,79,78,79,79,80,80,80,80,80,80,80,80,81,81,81,81,81,80,80,80,80,80,80,80,79,80,80,80,79,79,79,79,79,78,79,78,78,78,78,79,79,78,78,79,78,78,78,79,79,79,78,79,79,79,79,79,79,79,79,79,79,79,79,79,79,79,79,79,79,79,80,80,80,79,79,79,79,79,80,79,80,80,79,80,79,79,79,79,79,79,79,80,79,79,79,79,80,79,79,79,80,79,79,79,80,79,80,80,80,80,80,80,80,80,80,80,80,80,80,80,80,81,80,80,80,80,80,80,81,81,81,81,80,80,80,80,81,81,81,81,81,81,81,81,81,81,81,81,81,82,81,81,81,81,81,81,81,81,81,81,81,81,81,81,82,82,81,81,81,82,82,82,81,82,81,82,82,82,81,82,82,81,82,81,81,81,81,82,81,82,81,82,81,81,81,81,82,81,81,81,81,81,81,81,81,82,81,81,81,81,81,82,82,82,82,82,82,82,82,82,83,83,83,83,83,83,83,83,83,84,84,84,83,83,83,83,82,83,83,82,82,83,82,82,82,82,83,83,82,82,82,82,82,82,82,83,82,82,82,82,82,82,82,82,81,81,80,79,76,74,70,67,64,60,57,54,55,58,66,77,91,107,125,145,165,183,198,210,217,220,219,213,204,193,181,168,156,146,136,127,118,112,105,100,95,92,88,86,83,82,80,78,78,77,76,75,75,75,74,74,74,74,74,74,74,74,74,74,74,74,73,74,74,74,75,74,74,74,74,75,74,74,74,74,74,75,75,74,75,75,75,74,75,74,75,75,74,74,74,74,75,75,75,75,75,75,75,74,75,75,75,75,75,76,75,75,76,76,76,76,77,77,77,77,77,77,78,78,78,79,78,79,79,80,79,79,80,80,80,80,80,80,80,81,81,81,81,81,81,81,82,81,80,81,81,80,80,80,80,79,79,79,79,79,79,78,79,78,78,78,78,78,78,78,78,78,78,78,77,77,78,78,78,78,78,78,78,78,78,78,78,78,78,78,78,79,78,79,79,78,79,78,78,79,78,79,78,78,79,78,79,78,79,79,79,78,78,78,78,78,79,78,78,78,78,78,78,78,79,78,79,78,78,78,78,79,79,79,78,79,78,78,79,79,79,79,79,79,79,79,79,79,79,79,79,79,79,79,79,79,79,79,79,79,79,79,79,79,79,79,79,79,79,79,79,79,80,79,79,80,79,79,79,80,80,80,79,80,80,80,80,80,80,80,80,80,80,80,80,80,80,80,80,80,80,79,79,79,79,79,80,80,80,80,80,80,81,81,81,81,81,81,81,82,81,81,82,82,82,82,82,82,81,81,81,81,81,81,81,81,80,80,80,80,80,81,80,80,80,80,80,80,80,81,81,80,80,80,80,80,80,80,80,80,80,80,79,79,77,75,72,70,66,63,59,57,55,54,56,61,70,82,96,113,132,152,170,186,197,205,209,209,204,196,186,175,164,153,142,132,124,117,110,104,99,94,91,87,84,82,81,79,78,77,76,75,75,74,74,74,73,73,73,73,73,73,73,73,73,73,73,73,74,73,74,73,74,73,74,73,73,74,74,74,74,74,74,74,74,74,74,74,75,74,75,74,75,75,74,75,75,75,75,75,75,75,75,76,75,75,76,76,76,76,76,76,77,77,77,77,78,78,78,79,79,79,79,79,80,80,80,80,80,81,81,80,81,81,81,81,81,81,81,81,81,81,80,80,80,80,80,80,79,79,78,78,78,78,77,77,77,76,76,76,76,76,75,75,75,75,75,74,75,75,75,75,75,75,75,74,75,74,74,75,74,75,74,75,75,74,74,74,74,74,74,74,74,74,74,74,74,74,74,74,74,74,74,74,75,75,75,75,75,75,74,75,75,75,75,75,75,75,75,75,75,75,75,75,75,74,75,75,75,75,75,75,75,75,75,75,74,75,75,75,75,75,75,75,75,75,75,75,75,75,75,75,75,75,75,75,76,76,76,75,75,75,76,76,76,76,76,76,75,76,76,76,76,76,76,76,76,77,76,76,76,76,76,75,75,76,76,76,76,76,76,76,76,76,76,77,77,77,77,77,77,77,78,78,78,78,78,78,78,78,78,78,79,78,78,78,77,77,77,77,77,77,77,77,77,77,77,77,77,78,78,77,77,77,78,77,77,77,77,78,77,77,78,78,77,77,77,77,76,73,71,67,64,61,58,55,52,50,51,56,64,76,91,107,125,146,165,182,195,205,210,211,208,201,191,180,168,156,145,135,126,117,111,104,98,93,89,86,83,81,79,77,76,75,74,73,72,72,72,71,71,71,71,71,71,71,71,70,70,70,70,70,71,71,71,71,71,70,71,71,71,71,71,71,71,71,72,72,72,71,72,72,72,71,72,72,72,72,72,72,72,72,72,72,72,72,72,72,73,73,73,73,73,73,74,74,74,74,74,74,75,75,75,76,76,76,76,77,77,77,78,78,78,78,78,78,78,78,79,79,79,80,80,79,79,79,79,79,79,79,79,79,78,78,78,77,77,77,77,76,76,76,76,76,76,76,76,76,75,75,75,75,75,75,75,75,75,75,75,75,75,75,75,75,75,75,75,75,75,75,76,76,75,75,75,75,75,75,76,75,75,75,75,75,76,75,75,76,75,76,76,75,76,75,76,75,75,76,75,76,75,76,75,76,76,75,76,76,76,76,75,76,75,75,76,75,75,76,76,76,76,75,76,76,76,75,76,76,76,76,76,76,76,76,76,76,76,76,76,76,76,76,76,76,76,76,76,76,76,76,76,77,76,76,76,76,77,76,76,76,76,77,77,77,76,76,76,77,77,77,77,77,77,77,77,76,77,77,77,77,77,77,77,77,77,77,77,77,77,77,77,77,77,78,77,77,78,78,78,78,78,78,78,79,79,79,78,79,79,79,79,79,80,79,79,79,79,79,79,79,79,79,79,78,78,78,78,79,78,78,78,78,78,78,78,79,79,79,78,79,78,79,79,79,79,79,78,79,78,77,76,74,71,68,64,61,57,54,52,50,53,60,70,82,98,116,135,156,174,191,204,213,217,217,213,206,195,183,170,158,147,136,127,118,111,104,99,94,89,86,84,81,79,77,76,76,74,73,73,72,72,72,72,72,71,71,72,71,71,71,71,72,71,71,72,71,71,72,72,72,72,72,72,71,71,72,72,72,72,72,72,72,72,72,72,72,72,72,72,72,72,72,72,72,72,72,72,72,72,72,72,72,72,72,73,72,73,73,72,73,73,73,73,74,74,74,74,75,75,75,75,75,76,76,76,76,76,76,77,77,77,77,77,78,78,78,78,79,78,78,79,78,78,78,78,78,78,77,77,77,77,77,77,77,77,76,76,76,76,76,76,76,76,76,76,76,76,76,76,76,76,76,76,76,76,76,76,76,77,76,77,76,77,76,77,77,76,76,77,76,76,77,76,76,77,77,76,77,77,77,76,77,76,77,77,77,76,77,76,76,76,76,76,77,77,76,76,76,76,76,76,76,76,76,76,76,76,76,76,76,76,76,76,76,76,76,77,77,77,76,76,76,77,76,76,77,77,77,76,76,76,77,77,77,77,77,77,77,77,77,77,77,77,77,76,76,77,77,77,77,77,77,77,77,76,77,76,77,77,77,77,77,77,77,77,77,77,77,77,77,76,77,77,77,77,77,77,77,77,77,77,77,77,77,78,77,76,76,77,77,77,77,77,76,76,77,77,77,77,77,77,77,77,78,77,78,78,78,78,78,78,78,78,78,79,78,78,78,78,78,78,78,79,78,78,78,78,77,78,77,77,77,78,78,77,77,77,78,77,77,77,78,78,78,77,77,77,77,77,78,78,77,77,77,77,77,76,74,71,68,64,61,58,55,52,49,49,54,62,73,88,104,123,143,163,181,196,207,215,217,215,209,201,190,177,164,152,141,130,122,113,106,100,94,90,85,83,80,78,76,75,73,72,71,71,71,69,69,69,69,69,68,68,68,68,68,68,68,68,68,68,68,68,68,68,68,68,68,68,68,68,68,68,68,68,68,68,68,68,68,69,68,68,68,69,68,69,68,68,68,68,68,68,67,68,68,68,68,68,68,68,68,68,68,68,69,69,69,69,69,69,69,70,70,70,71,70,71,71,71,71,71,72,72,73,72,72,72,73,73,74,74,74,74,74,74,75,74,75,74,74,74,74,74,74,74,74,73,73,73,73,73,73,73,73,73,72,72,73,72,72,73,72,73,73,72,73,73,72,72,72,73,72,72,73,72,72,72,72,73,73,73,73,73,73,72,73,73,73,73,73,73,73,73,73,72,73,73,73,73,73,73,73,73,73,73,73,73,73,73,73,72,73,73,73,73,73,73,72,72,73,73,73,73,73,72,73,73,73,73,73,73,73,73,73,73,73,73,73,73,73,74,73,73,73,73,73,73,73,73,73,73,73,73,73,73,74,73,73,74,74,73,74,73,74,73,74,73,73,73,74,74,74,74,74,74,74,74,74,74,74,74,74,74,74,74,74,74,74,75,74,74,74,74,74,74,74,74,74,74,74,74,74,74,74,75,75,74,75,75,75,76,76,75,76,76,76,75,76,76,76,77,76,77,77,77,76,76,76,76,76,76,75,75,75,75,75,75,75,76,75,75,75,75,75,75,76,75,75,76,75,75,75,75,76,75,75,75,75,74,73,72,70,67,64,61,58,55,51,49,48,50,56,65,78,93,111,130,150,168,182,194,202,205,204,199,191,181,169,158,147,136,127,118,111,104,98,94,88,84,82,79,77,75,73,73,72,71,70,69,69,68,69,68,68,68,68,68,68,68,68,68,68,69,69,68,68,68,68,69,69,69,68,69,69,69,69,69,69,69,69,69,69,70,69,70,70,70,70,70,70,70,70,70,70,71,71,71,71,71,71,71,71,71,72,72,71,72,72,72,72,73,73,74,73,74,74,74,75,75,75,75,76,76,76,76,76,76,76,77,77,77,77,77,77,77,77,77,77,77,77,77,77,76,76,76,76,76,75,75,75,75,75,74,74,74,74,74,74,73,73,73,73,73,73,73,72,73,73,73,73,73,72,72,72,73,72,73,73,73,73,72,73,72,72,73,73,73,73,73,73,73,73,73,73,73,73,73,73,73,73,73,73,73,73,73,73,73,73,73,73,73,73,73,73,72,73,73,73,73,73,73,73,73,73,73,73,73,73,73,73,73,73,73,72,73,72,73,73,73,73,73,73,73,74,73,73,73,73,73,73,73,73,74,73,73,73,73,73,73,73,74,74,74,73,74,73,73,74,74,73,74,74,74,74,73,74,74,73,73,74,74,74,74,74,74,74,74,75,75,75,75,75,75,75,75,75,75,76,76,76,76,76,76,76,76,75,75,74,74,75,75,75,74,75,74,74,74,74,74,75,74,74,74,74,74,75,74,74,74,74,74,74,74,74,74,74,74,73,72,70,68,65,62,59,55,52,50,48,48,51,59,70,83,99,117,136,155,172,185,196,202,203,200,194,185,174,162,152,141,131,122,114,107,101,95,90,86,83,80,78,76,75,73,72,71,71,70,70,69,68,68,68,68,68,68,68,68,68,68,68,68,68,68,68,68,69,69,69,69,69,69,69,69,69,69,69,69,70,70,70,70,70,70,69,70,70,70,70,70,71,71,70,70,71,71,71,71,71,71,71,71,72,71,71,72,72,72,73,73,73,74,74,74,74,74,75,75,75,76,76,76,77,77,76,77,77,77,77,77,78,78,77,77,77,77,77,77,77,76,76,76,76,76,75,74,75,74,74,74,74,73,73,73,73,72,73,72,72,72,72,72,72,72,71,71,72,72,72,72,72,71,72,71,71,71,72,71,72,71,71,72,71,72,72,72,72,72,72,72,72,72,72,72,72,72,72,72,72,72,71,72,72,72,72,72,72,72,72,72,72,72,72,72,72,72,72,72,72,72,72,72,72,73,72,72,72,72,72,73,72,73,72,72,73,73,73,73,73,73,72,73,73,73,73,73,73,73,73,73,73,73,73,73,73,74,73,73,74,73,73,73,73,73,74,73,74,74,73,73,73,73,73,74,73,73,74,73,73,74,74,73,74,73,73,74,73,73,73,74,74,74,74,74,74,74,75,75,75,75,75,75,75,75,75,76,75,76,76,76,76,76,76,76,76,75,75,75,75,75,75,74,75,75,75,75,75,75,75,75,75,76,75,74,75,75,75,75,75,75,75,75,75,75,74,75,74,74,72,70,68,64,61,57,54,51,48,47,49,55,65,78,93,110,130,150,168,184,196,205,209,209,205,196,187,175,163,151,140,130,121,113,106,100,94,89,85,82,80,77,76,74,72,71,71,70,70,69,69,69,68,68,68,68,68,67,68,68,67,68,68,68,68,68,68,68,68,68,68,69,69,68,69,69,68,68,68,69,69,69,69,69,69,69,69,69,69,70,69,70,70,69,69,69,70,70,70,70,70,70,70,70,71,71,70,71,71,71,71,71,72,72,73,73,73,73,73,74,74,74,74,75,75,75,75,75,75,76,76,76,76,76,76,76,76,76,76,76,76,76,75,75,75,75,75,75,74,74,74,74,73,73,73,73,73,73,73,72,72,72,72,72,72,72,72,72,72,72,72,72,72,72,72,72,72,72,72,73,73,72,73,73,73,73,73,73,73,73,73,73,73,73,73,73,72,73,73,73,73,73,73,73,73,73,73,73,73,73,73,73,73,73,73,73,73,73,73,74,73,73,73,73,73,73,74,73,73,73,73,73,74,73,74,74,74,74,74,74,74,74,74,74,74,74,74,74,75,75,74,74,74,74,74,74,74,75,74,74,75,74,74,75,75,75,75,75,75,74,75,75,75,75,75,75,75,75,75,75,75,75,75,75,75,75,75,76,75,76,75,75,76,75,75,76,76,76,75,76,76,76,75,76,76,76,76,76,75,76,76,76,75,76,76,76,75,76,76,76,76,77,77,77,77,77,77,77,78,78,77,77,78,78,79,78,78,78,78,78,78,78,78,77,78,77,77,77,77,77,77,78,77,77,78,77,77,78,77,77,77,77,77,78,78,78,78,78,78,77,77,77,77,76,75,73,69,66,62,59,56,53,50,50,54,61,72,86,103,121,141,161,179,195,207,215,218,218,213,204,193,181,168,155,144,133,124,116,108,102,96,91,88,84,82,80,77,76,75,73,73,72,71,71,71,71,70,70,70,69,69,71,69,70,70,70,70,70,70,70,70,70,70,70,70,70,70,71,71,71,70,70,70,70,70,71,71,71,71,71,71,70,71,71,71,71,71,71,71,71,71,71,71,71,71,71,71,71,71,72,72,72,72,72,72,72,72,73,74,74,74,74,74,74,74,75,75,75,75,76,76,76,76,77,76,77,77,77,78,78,78,78,78,78,79,78,78,78,78,78,78,78,77,77,77,77,77,77,76,76,76,76,76,76,76,76,76,76,76,77,76,76,76,76,76,76,76,76,77,77,77,76,76,77,77,77,77,77,77,77,77,77,77,77,77,77,77,77,77,77,77,77,77,77,77,77,77,77,77,77,77,77,77,77,77,77,77,78,77,77,77,76,77,77,77,77,77,77,77,77,77,77,77,77,77,77,77,77,77,77,77,77,77,78,77,77,77,77,78,77,78,78,78,77,78,78,78,78,78,78,78,78,78,78,78,78,78,78,78,78,78,79,78,78,78,78,78,79,78,78,78,78,78,78,78,79,79,79,78,78,78,78,79,79,78,79,79,78,79,79,79,79,78,78,79,78,78,78,78,78,79,79,79,78,79,78,79,79,79,79,79,79,79,79,79,78,79,79,79,79,79,78,79,79,79,79,79,78,78,79,78,79,79,79,79,79,80,80,80,80,80,80,80,81,80,81,80,80,81,81,81,81,81,81,81,80,80,80,80,80,80,80,80,79,80,80,80,80,80,80,80,80,80,80,80,81,80,80,80,80,80,80,80,80,80,81,79,79,77,76,74,71,67,64,60,57,54,52,53,58,67,79,94,111,129,149,169,186,201,211,218,219,217,211,202,190,177,165,153,142,132,123,115,108,103,97,93,89,86,84,81,80,78,77,76,75,75,74,74,74,73,73,73,73,73,73,72,73,73,73,73,73,73,73,73,73,73,73,73,73,73,73,73,73,73,73,73,73,74,73,74,73,73,74,73,74,74,73,73,73,73,73,74,74,74,74,73,74,73,73,74,74,74,74,74,74,75,74,75,75,76,75,75,76,76,76,77,77,77,77,78,77,78,78,78,78,79,79,79,79,79,80,80,80,81,81,81,81,81,81,81,81,81,81,80,80,80,80,79,80,79,80,79,79,79,79,79,79,78,79,79,79,78,78,78,78,78,78,79,79,78,79,79,78,78,78,79,78,79,79,79,79,79,78,79,79,79,79,78,79,79,79,79,79,79,79,79,79,79,79,79,79,79,79,79,79,79,79,79,79,79,79,79,79,79,79,78,79,79,79,79,79,78,79,79,79,79,79,79,79,79,79,78,79,79,79,79,79,79,79,79,79,79,79,79,79,79,79,79,80,79,80,80,80,80,80,80,80,80,80,80,80,80,80,80,80,80,80,80,80,80,80,80,80,80,80,81,80,81,80,80,80,80,80,80,80,80,80,80,80,80,80,81,81,81,80,80,81,80,81,80,80,81,81,80,81,81,80,81,80,81,81,81,80,80,80,80,80,81,81,81,81,81,81,81,81,81,82,82,82,82,82,82,82,82,82,83,83,82,83,83,82,83,83,83,83,82,82,82,82,82,82,82,82,82,82,82,82,82,82,82,82,82,82,82,82,82,82,82,82,82,82,82,82,82,82,82,81,80,79,76,74,70,67,64,61,58,56,55,58,64,75,88,103,121,140,160,177,192,203,210,213,211,206,197,186,175,163,152,141,133,124,117,110,104,99,95,91,88,86,84,82,80,79,79,78,78,77,77,76,76,75,75,75,75,75,76,75,75,75,75,75,76,75,75,76,76,76,76,76,76,76,76,76,76,77,76,76,77,77,77,77,77,77,77,77,77,77,77,77,77,77,77,77,78,78,77,78,78,78,78,79,78,79,79,79,80,79,80,80,80,80,81,81,81,81,82,82,82,82,83,83,83,83,83,83,83,84,84,84,84,84,83,84,84,84,83,84,84,83,83,83,82,82,82,82,81,81,81,81,81,80,80,80,80,80,79,79,79,79,79,79,79,79,79,79,79,78,78,79,78,79,79,79,78,79,78,78,78,78,79,79,78,79,78,78,78,79,79,79,78,78,79,78,79,79,79,79,79,79,79,79,79,79,79,79,79,79,79,79,79,79,79,79,79,79,79,79,79,79,79,80,79,79,79,79,79,79,79,80,80,80,80,79,79,80,80,80,80,80,80,80,80,79,80,80,80,80,80,80,80,80,79,80,80,80,80,80,80,80,80,80,80,80,80,80,80,80,80,80,81,80,80,80,80,80,80,81,81,80,81,80,80,80,80,80,80,80,80,81,81,80,80,80,81,81,81,80,80,80,80,80,81,80,81,81,81,82,82,81,82,82,82,82,82,83,82,83,82,82,83,83,83,82,82,82,82,81,82,81,81,81,81,81,81,81,81,81,81,81,81,81,81,81,81,81,81,81,81,81,81,81,81,81,81,81,80,79,77,75,71,68,65,62,58,56,55,55,60,68,80,94,110,128,147,167,183,197,207,212,212,209,202,193,182,170,158,148,138,128,121,114,107,101,96,92,89,86,84,82,81,79,78,77,76,76,75,75,75,75,75,75,74,74,74,74,74,73,74,74,74,74,74,74,74,74,74,74,75,75,75,75,75,75,75,75,76,75,76,75,75,76,76,76,76,76,76,76,76,76,76,76,76,76,76,76,77,77,77,77,77,77,77,78,78,78,78,79,79,79,80,80,80,80,80,81,81,82,82,82,82,82,82,82,83,83,83,83,84,83,83,83,83,84,83,83,83,83,83,83,82,82,82,82,81,81,81,80,80,80,80,80,80,79,79,79,78,79,79,79,79,78,78,78,78,78,78,78,78,78,77,78,78,78,78,78,78,78,78,78,77,79,78,78,78,78,78,78,78,78,78,78,78,79,78,78,78,78,78,78,78,78,78,78,79,78,78,78,78,78,78,78,79,79,78,78,78,79,78,79,79,79,79,79,79,79,79,79,79,79,80,79,79,79,79,80,80,79,79,79,79,79,79,79,79,80,80,79,79,80,79,80,80,80,80,80,80,79,80,80,80,80,80,80,80,80,80,80,80,81,80,80,80,80,80,80,80,80,81,80,80,80,80,80,80,81,80,80,80,80,80,80,80,81,81,80,80,80,80,81,80,80,80,80,80,80,80,80,81,80,81,80,80,80,80,80,80,80,80,81,80,81,81,81,82,82,81,82,82,82,82,82,82,82,82,82,82,82,83,83,82,82,82,82,82,81,82,82,81,82,81,81,82,81,82,81,82,81,82,82,82,82,81,82,82,81,82,81,81,82,82,82,81,81,79,78,76,72,68,65,62,58,56,53,55,60,69,81,95,111,131,151,170,189,202,213,219,221,218,212,202,191,179,166,154,143,133,124,116,109,104,98,94,90,87,84,82,81,80,79,77,76,75,75,75,75,75,75,74,74,74,74,73,73,74,74,74,74,74,75,74,74,74,74,74,74,74,75,74,74,74,75,74,75,75,75,74,75,75,75,75,75,75,75,75,75,76,75,75,76,76,75,76,75,76,76,75,76,76,76,76,76,76,77,76,77,77,77,78,78,78